0.0 0.214286
1.0 0.214286
2.0 0.214286
3.0 0.214286
4.0 0.214286
5.0 0.214286
6.0 0.214286
7.0 0.214286
8.0 0.214286
9.0 0.214286
10.0 0.214286
11.0 0.214286
12.0 0.214286
13.0 0.214286
14.0 0.214286
15.0 0.214286
16.0 0.214286
17.0 0.214286
18.0 0.214286
19.0 0.214286
20.0 0.214286
21.0 0.214286
22.0 0.214286
23.0 0.214286
24.0 0.214286
25.0 0.214286
26.0 0.214286
27.0 0.214286
28.0 0.214286
29.0 0.214286
30.0 0.214286
31.0 0.214286
32.0 0.214286
33.0 0.214286
34.0 0.214286
35.0 0.214286
36.0 0.214286
37.0 0.214286
38.0 0.214286
39.0 0.214286
40.0 0.214286
41.0 0.214286
42.0 0.214286
43.0 0.214286
44.0 0.214286
45.0 0.214286
46.0 0.214286
47.0 0.214286
48.0 0.214286
49.0 0.214286
50.0 0.214286
51.0 0.214286
52.0 0.214286
53.0 0.214286
54.0 0.214286
55.0 0.214287
56.0 0.214287
57.0 0.214287
58.0 0.214287
59.0 0.214287
60.0 0.214288
61.0 0.214288
62.0 0.214288
63.0 0.214289
64.0 0.214289
65.0 0.214290
66.0 0.214291
67.0 0.214291
68.0 0.214292
69.0 0.214293
70.0 0.214295
71.0 0.214296
72.0 0.214298
73.0 0.214299
74.0 0.214302
75.0 0.214304
76.0 0.214307
77.0 0.214310
78.0 0.214313
79.0 0.214317
80.0 0.214322
81.0 0.214327
82.0 0.214333
83.0 0.214339
84.0 0.214346
85.0 0.214355
86.0 0.214364
87.0 0.214375
88.0 0.214387
89.0 0.214400
90.0 0.214415
91.0 0.214431
92.0 0.214450
93.0 0.214471
94.0 0.214494
95.0 0.214520
96.0 0.214549
97.0 0.214581
98.0 0.214617
99.0 0.214656
100.0 0.214700
101.0 0.214748
102.0 0.214802
103.0 0.214861
104.0 0.214926
105.0 0.214998
106.0 0.215077
107.0 0.215163
108.0 0.215258
109.0 0.215362
110.0 0.215476
111.0 0.215600
112.0 0.215736
113.0 0.215884
114.0 0.216046
115.0 0.216221
116.0 0.216412
117.0 0.216618
118.0 0.216842
119.0 0.217084
120.0 0.217346
121.0 0.217629
122.0 0.217934
123.0 0.218262
124.0 0.218614
125.0 0.218993
126.0 0.219400
127.0 0.219835
128.0 0.220300
129.0 0.220797
130.0 0.221328
131.0 0.221893
132.0 0.222495
133.0 0.223134
134.0 0.223813
135.0 0.224532
136.0 0.225294
137.0 0.226098
138.0 0.226948
139.0 0.227843
140.0 0.228786
141.0 0.229777
142.0 0.230817
143.0 0.231908
144.0 0.233050
145.0 0.234243
146.0 0.235489
147.0 0.236788
148.0 0.238139
149.0 0.239544
150.0 0.241002
151.0 0.242513
152.0 0.244075
153.0 0.245690
154.0 0.247355
155.0 0.249070
156.0 0.250833
157.0 0.252643
158.0 0.254498
159.0 0.256395
160.0 0.258333
161.0 0.260310
162.0 0.262321
163.0 0.264365
164.0 0.266438
165.0 0.268536
166.0 0.270656
167.0 0.272794
168.0 0.274945
169.0 0.277106
170.0 0.279271
171.0 0.281437
172.0 0.283597
173.0 0.285748
174.0 0.287883
175.0 0.289998
176.0 0.292087
177.0 0.294146
178.0 0.296167
179.0 0.298147
180.0 0.300079
181.0 0.301958
182.0 0.303779
183.0 0.305536
184.0 0.307224
185.0 0.308839
186.0 0.310375
187.0 0.311827
188.0 0.313191
189.0 0.314463
190.0 0.315639
191.0 0.316714
192.0 0.317686
193.0 0.318551
194.0 0.319307
195.0 0.319951
196.0 0.320480
197.0 0.320894
198.0 0.321191
199.0 0.321369
200.0 0.321429
201.0 0.321369
202.0 0.321191
203.0 0.320894
204.0 0.320480
205.0 0.319951
206.0 0.319307
207.0 0.318551
208.0 0.317686
209.0 0.316714
210.0 0.315639
211.0 0.314463
212.0 0.313191
213.0 0.311827
214.0 0.310375
215.0 0.308839
216.0 0.307224
217.0 0.305536
218.0 0.303779
219.0 0.301958
220.0 0.300079
221.0 0.298147
222.0 0.296167
223.0 0.294146
224.0 0.292087
225.0 0.289998
226.0 0.287883
227.0 0.285748
228.0 0.283597
229.0 0.281437
230.0 0.279271
231.0 0.277106
232.0 0.274945
233.0 0.272794
234.0 0.270656
235.0 0.268536
236.0 0.266438
237.0 0.264365
238.0 0.262321
239.0 0.260310
240.0 0.258333
241.0 0.256395
242.0 0.254498
243.0 0.252643
244.0 0.250833
245.0 0.249070
246.0 0.247355
247.0 0.245690
248.0 0.244075
249.0 0.242513
250.0 0.241002
251.0 0.239544
252.0 0.238139
253.0 0.236788
254.0 0.235489
255.0 0.234243
256.0 0.233050
257.0 0.231908
258.0 0.230817
259.0 0.229777
260.0 0.228786
261.0 0.227843
262.0 0.226948
263.0 0.226098
264.0 0.225294
265.0 0.224532
266.0 0.223813
267.0 0.223134
268.0 0.222495
269.0 0.221893
270.0 0.221328
271.0 0.220798
272.0 0.220300
273.0 0.219835
274.0 0.219400
275.0 0.218993
276.0 0.218615
277.0 0.218262
278.0 0.217934
279.0 0.217629
280.0 0.217346
281.0 0.217085
282.0 0.216842
283.0 0.216618
284.0 0.216412
285.0 0.216221
286.0 0.216046
287.0 0.215885
288.0 0.215737
289.0 0.215601
290.0 0.215476
291.0 0.215362
292.0 0.215258
293.0 0.215163
294.0 0.215077
295.0 0.214998
296.0 0.214926
297.0 0.214861
298.0 0.214802
299.0 0.214749
300.0 0.214700
301.0 0.214656
302.0 0.214616
303.0 0.214580
304.0 0.214547
305.0 0.214517
306.0 0.214489
307.0 0.214462
308.0 0.214436
309.0 0.214409
310.0 0.214380
311.0 0.214348
312.0 0.214310
313.0 0.214262
314.0 0.214202
315.0 0.214123
316.0 0.214018
317.0 0.213879
318.0 0.213695
319.0 0.213452
320.0 0.213135
321.0 0.212722
322.0 0.212191
323.0 0.211515
324.0 0.210663
325.0 0.209601
326.0 0.208293
327.0 0.206698
328.0 0.204777
329.0 0.202492
330.0 0.199804
331.0 0.196683
332.0 0.193104
333.0 0.189053
334.0 0.184529
335.0 0.179545
336.0 0.174133
337.0 0.168346
338.0 0.162255
339.0 0.155954
340.0 0.149557
341.0 0.143197
342.0 0.137025
343.0 0.131205
344.0 0.125909
345.0 0.121317
346.0 0.117610
347.0 0.114967
348.0 0.113560
349.0 0.113555
350.0 0.115109
351.0 0.118368
352.0 0.123472
353.0 0.130553
354.0 0.139740
355.0 0.151159
356.0 0.164935
357.0 0.181192
358.0 0.200052
359.0 0.221630
360.0 0.246028
361.0 0.273322
362.0 0.303557
363.0 0.336722
364.0 0.372745
365.0 0.411472
366.0 0.452653
367.0 0.495932
368.0 0.540837
369.0 0.586785
370.0 0.633077
371.0 0.678919
372.0 0.723436
373.0 0.765702
374.0 0.804767
375.0 0.839700
376.0 0.869623
377.0 0.893750
378.0 0.911425
379.0 0.922150
380.0 0.925612
381.0 0.921696
382.0 0.910487
383.0 0.892272
384.0 0.867518
385.0 0.836851
386.0 0.801028
387.0 0.760894
388.0 0.717354
389.0 0.671325
390.0 0.623710
391.0 0.575358
392.0 0.527050
393.0 0.479469
394.0 0.433201
395.0 0.388723
396.0 0.346413
397.0 0.306551
398.0 0.269338
399.0 0.234906
400.0 0.203335
401.0 0.174663
402.0 0.148903
403.0 0.126050
404.0 0.106087
405.0 0.088989
406.0 0.074722
407.0 0.063242
408.0 0.054490
409.0 0.048388
410.0 0.044836
411.0 0.043705
412.0 0.044837
413.0 0.048044
414.0 0.053112
415.0 0.059799
416.0 0.067846
417.0 0.076983
418.0 0.086933
419.0 0.097425
420.0 0.108200
421.0 0.119017
422.0 0.129662
423.0 0.139950
424.0 0.149728
425.0 0.158879
426.0 0.167319
427.0 0.174996
428.0 0.181887
429.0 0.187996
430.0 0.193347
431.0 0.197981
432.0 0.201951
433.0 0.205319
434.0 0.208149
435.0 0.210510
436.0 0.212467
437.0 0.214080
438.0 0.215407
439.0 0.216500
440.0 0.217403
441.0 0.218156
442.0 0.218791
443.0 0.219336
444.0 0.219814
445.0 0.220243
446.0 0.220638
447.0 0.221011
448.0 0.221370
449.0 0.221721
450.0 0.222072
451.0 0.222424
452.0 0.222782
453.0 0.223148
454.0 0.223523
455.0 0.223908
456.0 0.224305
457.0 0.224715
458.0 0.225137
459.0 0.225573
460.0 0.226022
461.0 0.226486
462.0 0.226965
463.0 0.227459
464.0 0.227968
465.0 0.228493
466.0 0.229034
467.0 0.229591
468.0 0.230165
469.0 0.230755
470.0 0.231363
471.0 0.231989
472.0 0.232632
473.0 0.233294
474.0 0.233973
475.0 0.234672
476.0 0.235389
477.0 0.236126
478.0 0.236882
479.0 0.237657
480.0 0.238453
481.0 0.239268
482.0 0.240104
483.0 0.240961
484.0 0.241838
485.0 0.242737
486.0 0.243656
487.0 0.244597
488.0 0.245559
489.0 0.246543
490.0 0.247548
491.0 0.248576
492.0 0.249625
493.0 0.250696
494.0 0.251789
495.0 0.252904
496.0 0.254042
497.0 0.255202
498.0 0.256383
499.0 0.257587
500.0 0.258813
501.0 0.260061
502.0 0.261330
503.0 0.262622
504.0 0.263935
505.0 0.265270
506.0 0.266626
507.0 0.268003
508.0 0.269401
509.0 0.270820
510.0 0.272259
511.0 0.273719
512.0 0.275198
513.0 0.276697
514.0 0.278214
515.0 0.279751
516.0 0.281306
517.0 0.282878
518.0 0.284468
519.0 0.286075
520.0 0.287699
521.0 0.289338
522.0 0.290992
523.0 0.292662
524.0 0.294345
525.0 0.296042
526.0 0.297751
527.0 0.299473
528.0 0.301206
529.0 0.302949
530.0 0.304703
531.0 0.306465
532.0 0.308236
533.0 0.310014
534.0 0.311799
535.0 0.313589
536.0 0.315385
537.0 0.317184
538.0 0.318986
539.0 0.320790
540.0 0.322595
541.0 0.324400
542.0 0.326204
543.0 0.328006
544.0 0.329804
545.0 0.331599
546.0 0.333389
547.0 0.335172
548.0 0.336948
549.0 0.338715
550.0 0.340473
551.0 0.342220
552.0 0.343955
553.0 0.345677
554.0 0.347386
555.0 0.349079
556.0 0.350755
557.0 0.352414
558.0 0.354054
559.0 0.355675
560.0 0.357275
561.0 0.358852
562.0 0.360406
563.0 0.361936
564.0 0.363441
565.0 0.364919
566.0 0.366370
567.0 0.367792
568.0 0.369184
569.0 0.370545
570.0 0.371874
571.0 0.373171
572.0 0.374434
573.0 0.375662
574.0 0.376854
575.0 0.378010
576.0 0.379128
577.0 0.380207
578.0 0.381248
579.0 0.382248
580.0 0.383207
581.0 0.384125
582.0 0.385000
583.0 0.385831
584.0 0.386619
585.0 0.387363
586.0 0.388062
587.0 0.388714
588.0 0.389321
589.0 0.389881
590.0 0.390394
591.0 0.390859
592.0 0.391277
593.0 0.391646
594.0 0.391967
595.0 0.392238
596.0 0.392461
597.0 0.392634
598.0 0.392758
599.0 0.392832
600.0 0.392857
601.0 0.392832
602.0 0.392758
603.0 0.392634
604.0 0.392461
605.0 0.392238
606.0 0.391967
607.0 0.391646
608.0 0.391277
609.0 0.390859
610.0 0.390394
611.0 0.389881
612.0 0.389321
613.0 0.388714
614.0 0.388062
615.0 0.387363
616.0 0.386619
617.0 0.385831
618.0 0.385000
619.0 0.384125
620.0 0.383207
621.0 0.382248
622.0 0.381248
623.0 0.380207
624.0 0.379128
625.0 0.378010
626.0 0.376854
627.0 0.375662
628.0 0.374434
629.0 0.373171
630.0 0.371874
631.0 0.370545
632.0 0.369184
633.0 0.367792
634.0 0.366370
635.0 0.364919
636.0 0.363441
637.0 0.361936
638.0 0.360406
639.0 0.358852
640.0 0.357275
641.0 0.355675
642.0 0.354054
643.0 0.352414
644.0 0.350755
645.0 0.349079
646.0 0.347386
647.0 0.345677
648.0 0.343955
649.0 0.342220
650.0 0.340473
651.0 0.338715
652.0 0.336948
653.0 0.335172
654.0 0.333389
655.0 0.331599
656.0 0.329804
657.0 0.328006
658.0 0.326204
659.0 0.324400
660.0 0.322595
661.0 0.320790
662.0 0.318986
663.0 0.317184
664.0 0.315385
665.0 0.313589
666.0 0.311799
667.0 0.310014
668.0 0.308236
669.0 0.306465
670.0 0.304703
671.0 0.302949
672.0 0.301206
673.0 0.299473
674.0 0.297751
675.0 0.296042
676.0 0.294345
677.0 0.292662
678.0 0.290992
679.0 0.289338
680.0 0.287699
681.0 0.286075
682.0 0.284468
683.0 0.282878
684.0 0.281306
685.0 0.279751
686.0 0.278214
687.0 0.276697
688.0 0.275198
689.0 0.273719
690.0 0.272259
691.0 0.270820
692.0 0.269401
693.0 0.268003
694.0 0.266626
695.0 0.265270
696.0 0.263935
697.0 0.262622
698.0 0.261330
699.0 0.260061
700.0 0.258813
701.0 0.257587
702.0 0.256383
703.0 0.255202
704.0 0.254042
705.0 0.252904
706.0 0.251789
707.0 0.250696
708.0 0.249625
709.0 0.248576
710.0 0.247548
711.0 0.246543
712.0 0.245559
713.0 0.244597
714.0 0.243656
715.0 0.242737
716.0 0.241838
717.0 0.240961
718.0 0.240104
719.0 0.239268
720.0 0.238453
721.0 0.237657
722.0 0.236882
723.0 0.236126
724.0 0.235389
725.0 0.234672
726.0 0.233973
727.0 0.233294
728.0 0.232632
729.0 0.231989
730.0 0.231363
731.0 0.230755
732.0 0.230165
733.0 0.229591
734.0 0.229034
735.0 0.228493
736.0 0.227968
737.0 0.227459
738.0 0.226965
739.0 0.226487
740.0 0.226023
741.0 0.225574
742.0 0.225139
743.0 0.224717
744.0 0.224310
745.0 0.223915
746.0 0.223534
747.0 0.223165
748.0 0.222809
749.0 0.222464
750.0 0.222132
751.0 0.221810
752.0 0.221500
753.0 0.221201
754.0 0.220912
755.0 0.220634
756.0 0.220366
757.0 0.220107
758.0 0.219858
759.0 0.219618
760.0 0.219387
761.0 0.219164
762.0 0.218950
763.0 0.218744
764.0 0.218546
765.0 0.218356
766.0 0.218173
767.0 0.217998
768.0 0.217829
769.0 0.217667
770.0 0.217511
771.0 0.217362
772.0 0.217219
773.0 0.217082
774.0 0.216950
775.0 0.216824
776.0 0.216703
777.0 0.216588
778.0 0.216477
779.0 0.216371
780.0 0.216269
781.0 0.216172
782.0 0.216080
783.0 0.215991
784.0 0.215906
785.0 0.215825
786.0 0.215748
787.0 0.215674
788.0 0.215604
789.0 0.215536
790.0 0.215472
791.0 0.215411
792.0 0.215353
793.0 0.215297
794.0 0.215244
795.0 0.215194
796.0 0.215146
797.0 0.215100
798.0 0.215057
799.0 0.215015
800.0 0.214976
801.0 0.214939
802.0 0.214903
803.0 0.214869
804.0 0.214837
805.0 0.214807
806.0 0.214778
807.0 0.214750
808.0 0.214724
809.0 0.214700
810.0 0.214676
811.0 0.214654
812.0 0.214633
813.0 0.214613
814.0 0.214594
815.0 0.214577
816.0 0.214560
817.0 0.214544
818.0 0.214529
819.0 0.214514
820.0 0.214501
821.0 0.214488
822.0 0.214476
823.0 0.214464
824.0 0.214454
825.0 0.214444
826.0 0.214434
827.0 0.214425
828.0 0.214416
829.0 0.214408
830.0 0.214401
831.0 0.214394
832.0 0.214387
833.0 0.214381
834.0 0.214375
835.0 0.214369
836.0 0.214364
837.0 0.214359
838.0 0.214354
839.0 0.214350
840.0 0.214346
841.0 0.214342
842.0 0.214338
843.0 0.214335
844.0 0.214331
845.0 0.214328
846.0 0.214326
847.0 0.214323
848.0 0.214321
849.0 0.214318
850.0 0.214316
851.0 0.214314
852.0 0.214312
853.0 0.214310
854.0 0.214309
855.0 0.214307
856.0 0.214306
857.0 0.214304
858.0 0.214303
859.0 0.214302
860.0 0.214301
861.0 0.214300
862.0 0.214299
863.0 0.214298
864.0 0.214297
865.0 0.214296
866.0 0.214295
867.0 0.214295
868.0 0.214294
869.0 0.214293
870.0 0.214293
871.0 0.214292
872.0 0.214292
873.0 0.214291
874.0 0.214291
875.0 0.214291
876.0 0.214290
877.0 0.214290
878.0 0.214290
879.0 0.214289
880.0 0.214289
881.0 0.214289
882.0 0.214289
883.0 0.214288
884.0 0.214288
885.0 0.214288
886.0 0.214288
887.0 0.214288
888.0 0.214287
889.0 0.214287
890.0 0.214287
891.0 0.214287
892.0 0.214287
893.0 0.214287
894.0 0.214287
895.0 0.214287
896.0 0.214287
897.0 0.214287
898.0 0.214287
899.0 0.214286
900.0 0.214286
901.0 0.214286
902.0 0.214286
903.0 0.214286
904.0 0.214286
905.0 0.214286
906.0 0.214286
907.0 0.214286
908.0 0.214286
909.0 0.214286
910.0 0.214286
911.0 0.214286
912.0 0.214286
913.0 0.214286
914.0 0.214286
915.0 0.214286
916.0 0.214286
917.0 0.214286
918.0 0.214286
919.0 0.214286
920.0 0.214286
921.0 0.214286
922.0 0.214286
923.0 0.214286
924.0 0.214286
925.0 0.214286
926.0 0.214286
927.0 0.214286
928.0 0.214286
929.0 0.214286
930.0 0.214286
931.0 0.214286
932.0 0.214286
933.0 0.214286
934.0 0.214286
935.0 0.214286
936.0 0.214286
937.0 0.214286
938.0 0.214286
939.0 0.214286
940.0 0.214286
941.0 0.214286
942.0 0.214286
943.0 0.214286
944.0 0.214286
945.0 0.214286
946.0 0.214286
947.0 0.214286
948.0 0.214286
949.0 0.214286
950.0 0.214286
951.0 0.214286
952.0 0.214286
953.0 0.214286
954.0 0.214286
955.0 0.214286
956.0 0.214286
957.0 0.214286
958.0 0.214286
959.0 0.214286
960.0 0.214286
961.0 0.214286
962.0 0.214286
963.0 0.214286
964.0 0.214286
965.0 0.214286
966.0 0.214286
967.0 0.214286
968.0 0.214286
969.0 0.214286
970.0 0.214286
971.0 0.214286
972.0 0.214286
973.0 0.214286
974.0 0.214286
975.0 0.214286
976.0 0.214286
977.0 0.214286
978.0 0.214286
979.0 0.214286
980.0 0.214286
981.0 0.214286
982.0 0.214286
983.0 0.214286
984.0 0.214286
985.0 0.214286
986.0 0.214286
987.0 0.214286
988.0 0.214286
989.0 0.214286
990.0 0.214286
991.0 0.214286
992.0 0.214286
993.0 0.214286
994.0 0.214286
995.0 0.214286
996.0 0.214286
997.0 0.214286
998.0 0.214286
999.0 0.214286
